time,amplitude
0.0,-4.940158120464309
0.005005005005005005,-3.866531892621344
0.01001001001001001,-2.750275953072502
0.015015015015015015,-1.6268437143884138
0.02002002002002002,-0.5305140457699298
0.025025025025025023,0.5067370257341084
0.03003003003003003,1.4562616842018508
0.035035035035035036,2.2936281001193004
0.04004004004004004,2.9993411395659884
0.04504504504504504,3.559372740308085
0.050050050050050046,3.965485682507576
0.055055055055055056,4.215342013706912
0.06006006006006006,4.312395186457231
0.06506506506506507,4.265572753152799
0.07007007007007007,4.0887639582159565
0.07507507507507508,3.8001335057146197
0.08008008008008008,3.421288914317801
0.08508508508508508,2.9763339840515814
0.09009009009009009,2.490844810466829
0.09509509509509509,1.9908073548162566
0.10010010010010009,1.501556725118959
0.10510510510510511,1.0467580053232006
0.11011011011011011,0.647466703502892
0.11511511511511512,0.3213037424392189
0.12012012012012012,0.08177550385402466
0.12512512512512514,-0.06223607694068978
0.13013013013013014,-0.10679478461010738
0.13513513513513514,-0.05303126679075909
0.14014014014014015,0.09293996003968985
0.14514514514514515,0.32030401855106216
0.15015015015015015,0.6140185786394059
0.15515515515515516,0.9554579724192926
0.16016016016016016,1.3232039115631724
0.16516516516516516,1.6939526919119299
0.17017017017017017,2.0435043610980737
0.17517517517517517,2.347796177914771
0.18018018018018017,2.5839409227888646
0.18518518518518517,2.7312302928980685
0.19019019019019018,2.7720647472049684
0.19519519519519518,2.6927737174890316
0.20020020020020018,2.4842939817501866
0.20520520520520522,2.142679068571801
0.21021021021021022,1.6694186445330397
0.21521521521521522,1.0715537142528069
0.22022022022022023,0.3615808879093585
0.22522522522522523,-0.44285332225964247
0.23023023023023023,-1.3194595039383756
0.23523523523523523,-2.2419975350348564
0.24024024024024024,-3.1811309565616606
0.24524524524524524,-4.105414418667494
0.2502502502502503,-4.982380000740804
0.2552552552552553,-5.7796843173381305
0.2602602602602603,-6.466275777052386
0.2652652652652653,-7.013540257768572
0.2702702702702703,-7.396383844370433
0.2752752752752753,-7.594213136338851
0.2802802802802803,-7.591776912639138
0.2852852852852853,-7.379837529028118
0.2902902902902903,-6.955646160846092
0.2952952952952953,-6.323202693654036
0.3003003003003003,-5.493288471606139
0.3053053053053053,-4.483267980016422
0.3103103103103103,-3.316663588047235
0.3153153153153153,-2.022515426503576
0.3203203203203203,-0.6345460438797383
0.3253253253253253,0.8098435966392803
0.3303303303303303,2.2707141910277895
0.3353353353353353,3.706826733997179
0.34034034034034033,5.076938586711531
0.34534534534534533,6.341113618105091
0.35035035035035034,7.46200234535054
0.35535535535535534,8.406048805179733
0.36036036036036034,9.14458319545409
0.36536536536536535,9.654763058334602
0.37037037037037035,9.920330805243989
0.37537537537537535,9.932161536528485
0.38038038038038036,9.688582172707218
0.38538538538538536,9.195450644699402
0.39039039039039036,8.46599201915669
0.39539539539539537,7.520396679595277
0.40040040040040037,6.38519375782678
0.40540540540540543,5.0924206325212875
0.41041041041041043,3.67861621765344
0.41541541541541543,2.1836717132094137
0.42042042042042044,0.649577277502337
0.42542542542542544,-0.8808934608554222
0.43043043043043044,-2.3655171218911177
0.43543543543543545,-3.763928098934058
0.44044044044044045,-5.038856498894666
0.44544544544544545,-6.1572556355643595
0.45045045045045046,-7.091282142654014
0.45545545545545546,-7.819096964792205
0.46046046046046046,-8.325461754745833
0.46546546546546547,-8.602112332539804
0.47047047047047047,-8.647898596068583
0.4754754754754755,-8.468688341528058
0.4804804804804805,-8.077040572636312
0.4854854854854855,-7.491661766008589
0.4904904904904905,-6.736665940841323
0.4954954954954955,-5.840665997361601
0.5005005005005005,-4.835729410958599
0.5055055055055055,-3.7562358037496697
0.5105105105105106,-2.637677011134892
0.5155155155155156,-1.5154419138860185
0.5205205205205206,-0.4236284639606409
0.5255255255255256,0.606076005013743
0.5305305305305306,1.5454078704297203
0.5355355355355356,2.370399520498808
0.5405405405405406,3.062081967124012
0.5455455455455456,3.6069951727734777
0.5505505505505506,3.9974905524323714
0.5555555555555556,4.2318176827304015
0.5605605605605606,4.313995060427535
0.5655655655655656,4.253472521979503
0.5705705705705706,4.064600387475029
0.5755755755755756,3.7659272604330454
0.5805805805805806,3.3793544558642314
0.5855855855855856,2.929180028852824
0.5905905905905906,2.4410691586367808
0.5955955955955956,1.9409900766389394
0.6006006006006006,1.4541557275966372
0.6056056056056056,1.0040108888532187
0.6106106106106106,0.6113025645960342
0.6156156156156156,0.29326819175073027
0.6206206206206206,0.06297166391872988
0.6256256256256256,-0.07118843450684853
0.6306306306306306,-0.10578048500634818
0.6356356356356356,-0.042440618785603235
0.6406406406406406,0.11223061738204088
0.6456456456456456,0.34697133018108506
0.6506506506506506,0.6463492390517365
0.6556556556556556,0.9914216573229795
0.6606606606606606,1.3605392954381303
0.6656656656656657,1.7302632777316374
0.6706706706706707,2.076360474724055
0.6756756756756757,2.374839239249992
0.6806806806806807,2.6029860075924147
0.6856856856856857,2.7403630469733686
0.6906906906906907,2.7697289069789273
0.6956956956956957,2.677845821112266
0.7007007007007007,2.4561423110926137
0.7057057057057057,2.1012044286530114
0.7107107107107107,1.6150752428099775
0.7157157157157157,1.0053491243303143
0.7207207207207207,0.2850548447635868
0.7257257257257257,-0.5276707729401267
0.7307307307307307,-1.410109219084608
0.7357357357357357,-2.335669848744599
0.7407407407407407,-3.2747589644882416
0.7457457457457457,-4.195778762900353
0.7507507507507507,-5.066221500160153
0.7557557557557557,-5.85382047147994
0.7607607607607607,-6.52771699515239
0.7657657657657657,-7.059601635740368
0.7707707707707707,-7.4247884326505975
0.7757757757757757,-7.603182907132323
0.7807807807807807,-7.580108037271492
0.7857857857857857,-7.346957101122627
0.7907907907907907,-6.901648130766582
0.7957957957957957,-6.248861492186448
0.8008008008008007,-5.400049571308088
0.8058058058058059,-4.373215444030857
0.8108108108108109,-3.192465460284043
0.8158158158158159,-1.8873485955988634
0.8208208208208209,-0.49200293873985235
0.8258258258258259,0.9558634753102107
0.8308308308308309,2.416124354013524
0.8358358358358359,3.8474814288835617
0.8408408408408409,5.208763905307105
0.8458458458458459,6.460237585790929
0.8508508508508509,7.564879604107959
0.8558558558558559,8.489575666113861
0.8608608608608609,9.20619914745414
0.8658658658658659,9.692535266551761
0.8708708708708709,9.93301870098448
0.8758758758758759,9.91925926936395
0.8808808808808809,9.650337442933324
0.8858858858858859,9.132859233807913
0.8908908908908909,8.380768159959487
0.8958958958958959,7.414920227415106
0.9009009009009009,6.262435911245168
0.9059059059059059,4.9558506791891
0.9109109109109109,3.5320924223586867
0.9159159159159159,2.0313199994865694
0.9209209209209209,0.495661762056664
0.9259259259259259,-1.0321037538340574
0.9309309309309309,-2.509880920997269
0.9359359359359359,-3.8975595097085907
0.9409409409409409,-5.158243367874049
0.9459459459459459,-6.259364761995128
0.950950950950951,-7.1736479107077304
0.955955955955956,-7.879890550963086
0.960960960960961,-8.363538743209554
0.965965965965966,-8.617037321698941
0.970970970970971,-8.639946175931286
0.975975975975976,-8.4388206360059
0.980980980980981,-8.026862344782863
0.985985985985986,-7.4233548495567145
0.990990990990991,-6.652905461456765
0.995995995995996,-5.74452145750068
1.001001001001001,-4.7305542119944946
1.006006006006006,-3.6455491509690843
1.011011011011011,-2.5250423787090144
1.016016016016016,-1.4043463303863324
1.021021021021021,-0.31736681206492
1.026026026026026,0.7045076953183562
1.031031031031031,1.6334065094158392
1.0360360360360361,2.445833281021851
1.0410410410410411,3.1233502840076315
1.0460460460460461,3.653068537162745
1.0510510510510511,4.027928957512309
1.0560560560560561,4.246767352043767
1.0610610610610611,4.314163873429566
1.0660660660660661,4.240085315441706
1.0710710710710711,4.03933602864112
1.0760760760760761,3.730840032941837
1.0810810810810811,3.3367828495104703
1.0860860860860861,2.881646459841249
1.0910910910910911,2.391174452822174
1.0960960960960962,1.8913067137247763
1.1011011011011012,1.4071238638473829
1.1061061061061062,0.961841049239947
1.1111111111111112,0.5758886273874131
1.1161161161161162,0.2661138893787145
1.1211211211211212,0.045133308198412436
1.1261261261261262,-0.07914090816812802
1.1311311311311312,-0.10378274854434899
1.1361361361361362,-0.030932790729290005
1.1411411411411412,0.13232542871833175
1.1461461461461462,0.37428792573368685
1.1511511511511512,0.6791390900038197
1.1561561561561562,1.0276272794802654
1.1611611611611612,1.3978814024764579
1.1661661661661662,1.7663373965735334
1.1711711711711712,2.1087393453207355
1.1761761761761762,2.401177094533799
1.1811811811811812,2.6211207456980756
1.1861861861861862,2.748412370235906
1.1911911911911912,2.7661767086942075
1.1961961961961962,2.6616154443683415
1.2012012012012012,2.426653772023303
1.2062062062062062,2.058413272567097
1.2112112112112112,1.5594913652616818
1.2162162162162162,0.938034616576811
1.2212212212212212,0.2076006881236463
1.2262262262262262,-0.6131885640277335
1.2312312312312312,-1.5011926479218811
1.2362362362362362,-2.4294791112172405
1.2412412412412412,-3.368207036218909
1.2462462462462462,-4.2856371394375685
1.2512512512512513,-5.149233397465036
1.2562562562562563,-5.926817490630599
1.2612612612612613,-6.587735093339104
1.2662662662662663,-7.103992231634948
1.2712712712712713,-7.451320609204089
1.2762762762762763,-7.610132954596667
1.2812812812812813,-7.5663329943900255
1.2862862862862863,-7.311949488803966
1.2912912912912913,-6.845569711597417
1.2962962962962963,-6.172554608628911
1.3013013013013013,-5.305025390214818
1.3063063063063063,-4.261619238031256
1.3113113113113113,-3.0670198594116416
1.3163163163163163,-1.751276516940815
1.3213213213213213,-0.3489326205244647
1.3263263263263263,1.102008271378375
1.3313313313313313,2.561245374866471
1.3363363363363363,3.98743418880251
1.3413413413413413,5.339488890548543
1.3463463463463463,6.577889999251248
1.3513513513513513,7.665953271384277
1.3563563563563563,8.571016903390234
1.3613613613613613,9.265506716646861
1.3663663663663663,9.727843003037542
1.3713713713713713,9.943157978229108
1.3763763763763763,9.90379914287929
1.3813813813813813,9.609601069744716
1.3863863863863863,9.067915966863689
1.3913913913913913,8.293401541762583
1.3963963963963963,7.307572924933597
1.4014014014014013,6.138133416433547
1.4064064064064064,4.818106319027556
1.4114114114114114,3.3847968541931985
1.4164164164164164,1.8786188896972509
1.4214214214214214,0.3418257406054428
1.4264264264264264,-1.1828125172264894
1.4314314314314314,-2.653341070086992
1.4364364364364364,-4.029917385590952
1.4414414414414414,-5.276030226273228
1.4464464464464464,-6.359600472504721
1.4514514514514514,-7.253927764054682
1.4564564564564564,-7.938452392828003
1.4614614614614614,-8.399308339587673
1.4664664664664664,-8.629650617054528
1.4714714714714714,-8.62974790489308
1.4764764764764764,-8.40683956402664
1.4814814814814814,-7.974764214509802
1.4864864864864864,-7.353374869636477
1.4914914914914914,-6.5677628666474615
1.4964964964964964,-5.647319269253528
1.5015015015015014,-4.624667816361442
1.5065065065065064,-3.5345076690734873
1.5115115115115114,-2.4124070219725136
1.5165165165165164,-1.2935900011493202
1.5215215215215214,-0.21175912835209676
1.5265265265265264,0.8020060008526055
1.5315315315315314,1.720236233181605
1.5365365365365364,2.5199133430801597
1.5415415415415414,3.183135779869896
1.5465465465465464,3.6975884361525946
1.5515515515515514,4.0568023803870386
1.5565565565565564,4.260198137527117
1.5615615615615615,4.312913926026165
1.5665665665665665,4.225427987409661
1.5715715715715715,4.012991500188338
1.5765765765765765,3.694895291292887
1.5815815815815815,3.293599406911021
1.5865865865865865,2.833759373792426
1.5915915915915915,2.3411865040307873
1.5965965965965965,1.841781748315256
1.6016016016016015,1.360483311264404
1.6066066066066067,0.9202674862017646
1.6116116116116117,0.5412399766842393
1.6166166166166167,0.2398514307349915
1.6216216216216217,0.02826615198623994
1.6266266266266267,-0.08609285561207702
1.6316316316316317,-0.10080599420550129
1.6366366366366367,-0.018517047621091187
1.6416416416416417,0.15321069333191595
1.6466466466466467,0.40223625824886744
1.6516516516516517,0.7123674843863128
1.6566566566566567,1.0640519659143297
1.6616616616616617,1.4352061030365761
1.6666666666666667,1.8021506893659553
1.6716716716716717,2.140617430491984
1.6766766766766767,2.42678804302256
1.6816816816816818,2.638326242487389
1.6866866866866868,2.755363040859237
1.6916916916916918,2.761397338315095
1.6966966966966968,2.6440767551781663
1.7017017017017018,2.395827904364202
1.7067067067067068,2.0143107010275725
1.7117117117117118,1.5026776520940581
1.7167167167167168,0.8696261371370815
1.7217217217217218,0.12923923037929352
1.7267267267267268,-0.6993816491120244
1.7317317317317318,-1.5926813140149778
1.7367367367367368,-2.5233943645657924
1.7417417417417418,-3.4614427928777416
1.7467467467467468,-4.3749568837315
1.7517517517517518,-5.231383912529808
1.7567567567567568,-5.998645642254526
1.7617617617617618,-6.646303501067235
1.7667667667667668,-7.146689662039925
1.7717717717717718,-7.475963075952363
1.7767767767767768,-7.615051803724809
1.7817817817817818,-7.5504466811924855
1.7867867867867868,-7.274816300269668
1.7917917917917918,-6.787419336475816
1.7967967967967968,-6.094297183395761
1.8018018018018018,-5.20823742805842
1.8068068068068068,-4.148506652168506
1.8118118118118118,-2.940359093285611
1.8168168168168168,-1.6143355638916952
1.8218218218218218,-0.2053744271442015
1.8268268268268268,1.2482368960273993
1.8318318318318318,2.7060356999995028
1.8368368368368369,4.126644311094166
1.8418418418418419,5.469074991778918
1.8468468468468469,6.6940357023736095
1.8518518518518519,7.765192727501609
1.8568568568568569,8.6503474361473
1.8618618618618619,9.322487189614625
1.8668668668668669,9.760674548252926
1.8718718718718719,9.950744313920652
1.8768768768768769,9.885784395191582
1.8818818818818819,9.566383773191056
1.8868868868868869,9.000638724921775
1.8918918918918919,8.203916654463391
1.896896896896897,7.198385105787338
1.901901901901902,6.012321498235877
1.906906906906907,4.679226559976532
1.911911911911912,3.2367710775878775
1.916916916916917,1.725611200706502
1.921921921921922,0.18811194452253754
1.926926926926927,-1.3329784323280518
1.931931931931932,-2.795858935441976
1.936936936936937,-4.160966953214131
1.941941941941942,-5.392187200865338
1.946946946946947,-6.457938664383984
1.951951951951952,-7.332104043577721
1.956956956956957,-7.994771729624405
1.961961961961962,-8.432766904500621
1.966966966966967,-8.639955686498203
1.971971971971972,-8.617314109630481
1.976976976976977,-8.372761838992643
1.981981981981982,-7.920768604736779
1.986986986986987,-7.281749101692077
1.991991991991992,-6.481269278989828
1.996996996996997,-5.549093284812594
2.002002002002002,-4.518105616097704
2.007007007007007,-3.4231470699676403
2.012012012012012,-2.2998057652390527
2.017017017017017,-1.1832057098712632
2.022022022022022,-0.10683509692074544
2.027027027027027,0.8985452661148754
2.032032032032032,1.8058761828351888
2.037037037037037,2.5926242264101242
2.042042042042042,3.2414287309432783
2.047047047047047,3.7405510654877503
2.052052052052052,4.084112881570008
2.057057057057057,4.272117696902184
2.062062062062062,4.310258005338374
2.067067067067067,4.209517806049448
2.0720720720720722,3.9855877485148343
2.0770770770770772,3.658116734342194
2.0820820820820822,3.249829566386372
2.0870870870870872,2.78554488694874
2.0920920920920922,2.291131036523665
2.0970970970970972,1.7924394746606587
2.1021021021021022,1.3142559667514626
2.1071071071071072,0.8793088386501715
2.1121121121121122,0.507371271316801
2.1171171171171173,0.21449093762409444
2.1221221221221223,0.012375408608491512
2.1271271271271273,-0.09204414457356425
2.1321321321321323,-0.09685513857016659
2.1371371371371373,-0.005203119599344497
2.1421421421421423,0.17487229657375902
2.1471471471471473,0.43079843482203595
2.1521521521521523,0.7460135113193407
2.1571571571571573,1.1006726731112888
2.1621621621621623,1.4724891976850247
2.1671671671671673,1.8376788316650992
2.1721721721721723,2.171971326577417
2.1771771771771773,2.4516506225141623
2.1821821821821823,2.6545839335419017
2.1871871871871873,2.761200247163465
2.1921921921921923,2.7553804570411966
2.1971971971971973,2.6252244443130106
2.2022022022022023,2.363664798943921
2.2072072072072073,1.9689023731726554
2.2122122122122123,1.444645288090748
2.2172172172172173,0.8001401418747522
2.2222222222222223,0.04999173879181651
2.2272272272272273,-0.7862245999819089
2.2322322322322323,-1.6845464479791685
2.2372372372372373,-2.61738445954611
2.2422422422422423,-3.554433775036733
2.2472472472472473,-4.46370536680714
2.2522522522522523,-5.3126414181239845
2.2572572572572573,-6.069275461029501
2.2622622622622623,-6.703396022184323
2.2672672672672673,-7.18767201405816
2.2722722722722724,-7.498699086836692
2.2772772772772774,-7.617928595342041
2.2822822822822824,-7.532444654351975
2.2872872872872874,-7.235559824878912
2.2922922922922924,-6.727206118398399
2.2972972972972974,-6.0141050122362145
2.3023023023023024,-5.1097077927352235
2.3073073073073074,-4.0339055163112
2.3123123123123124,-2.8125159218763187
2.3173173173173174,-1.4765624579693881
2.3223223223223224,-0.06136792773668942
2.3273273273273274,1.3945081552569654
2.3323323323323324,2.850453801605178
2.3373373373373374,4.265071250375533
2.3423423423423424,5.59748394322051
2.3473473473473474,6.80863994331431
2.3523523523523524,7.862567864172288
2.3573573573573574,8.727542786113826
2.3623623623623624,9.377122527685582
2.3673673673673674,9.791018908031043
2.3723723723723724,9.955774137712947
2.3773773773773774,9.865219020209832
2.3823823823823824,9.520697007788218
2.3873873873873874,8.931046078450589
2.3923923923923924,8.11233861007787
2.3973973973973974,7.087387638433508
2.4024024024024024,5.885035811932191
2.4074074074074074,4.5392507224330725
2.4124124124124124,3.0880568418056455
2.4174174174174174,1.572339801210124
2.4224224224224224,0.03456302307429859
2.4274274274274275,-1.4825603929573306
2.4324324324324325,-2.9373962184357296
2.4374374374374375,-4.29067388498282
2.4424424424424425,-5.506684959366496
2.4474474474474475,-6.554355852455935
2.4524524524524525,-7.4081597632749245
2.4574574574574575,-8.048838506589217
2.4624624624624625,-8.46391151384678
2.4674674674674675,-8.647956698781588
2.4724724724724725,-8.60265578028869
2.4774774774774775,-8.33660477891894
2.4824824824824825,-7.864898464913288
2.4874874874874875,-7.208505253272103
2.4924924924924925,-6.393456145824246
2.4974974974974975,-5.44987756472732
2.5025025025025025,-4.410903090255447
2.5075075075075075,-3.3115030305581086
2.5125125125125125,-2.1872732793957854
2.5175175175175175,-1.0732259760659262
2.5225225225225225,-0.002624038383596705
2.5275275275275275,0.9941002835982777
2.5325325325325325,1.8903060144066006
2.5375375375375375,2.6639510128798625
2.5425425425425425,3.298220001671406
2.5475475475475475,3.7819532134289497
2.5525525525525525,4.109863096763061
2.5575575575575575,4.28253422503802
2.5625625625625625,4.3062093785401405
2.5675675675675675,4.192372445768227
2.5725725725725725,3.9571460386555914
2.5775775775775776,3.6205282815890323
2.5825825825825826,3.2054988822739605
2.5875875875875876,2.7370291242873783
2.5925925925925926,2.2410336774028834
2.5975975975975976,1.7433039893168578
2.6026026026026026,1.268463438090298
2.6076076076076076,0.8389833774468141
2.6126126126126126,0.4742967385522876
2.6176176176176176,0.19004205451766243
2.6226226226226226,-0.002534212306234629
2.6276276276276276,-0.09699515251124691
